SpectraSuite Data File
++++++++++++++++++++++++++++++++++++
Date: Mon Apr 03 14:58:50 EST 2017
User: z5074895
Dark Spectrum Present: No
Reference Spectrum Present: No
Number of Sampled Component Spectra: 1
Spectrometers: USB2G24502
Integration Time (usec): 100000 (USB2G24502)
Spectra Averaged: 1 (USB2G24502)
Boxcar Smoothing: 0 (USB2G24502)
Correct for Electrical Dark: No (USB2G24502)
Strobe/Lamp Enabled: No (USB2G24502)
Correct for Detector Non-linearity: No (USB2G24502)
Correct for Stray Light: No (USB2G24502)
Number of Pixels in Processed Spectrum: 651
>>>>>Begin Processed Spectral Data<<<<<
350.00	137.02
351.00	136.51
352.00	130.35
353.00	135.67
354.00	135.62
355.00	131.28
356.00	133.91
357.00	133.77
358.00	133.10
359.00	134.71
360.00	139.46
361.00	137.07
362.00	132.27
363.00	136.08
364.00	134.94
365.00	138.00
366.00	138.75
367.00	132.13
368.00	135.67
369.00	133.21
370.00	141.20
371.00	137.79
372.00	143.06
373.00	137.96
374.00	134.48
375.00	134.78
376.00	140.61
377.00	141.70
378.00	137.62
379.00	137.06
380.00	137.46
381.00	139.04
382.00	139.87
383.00	139.61
384.00	140.06
385.00	137.98
386.00	146.87
387.00	150.27
388.00	157.82
389.00	736.84
390.00	147.88
391.00	141.82
392.00	139.12
393.00	137.99
394.00	141.81
395.00	136.76
396.00	156.11
397.00	172.02
398.00	140.96
399.00	141.74
400.00	142.89
401.00	140.34
402.00	160.23
403.00	223.35
404.00	141.17
405.00	139.49
406.00	141.86
407.00	139.00
408.00	135.52
409.00	132.04
410.00	138.14
411.00	139.77
412.00	153.77
413.00	144.01
414.00	141.71
415.00	143.15
416.00	136.63
417.00	141.98
418.00	138.46
419.00	139.92
420.00	137.39
421.00	136.59
422.00	140.03
423.00	137.84
424.00	136.96
425.00	138.13
426.00	137.13
427.00	140.33
428.00	145.27
429.00	139.07
430.00	135.65
431.00	137.97
432.00	138.83
433.00	141.30
434.00	138.20
435.00	143.05
436.00	137.58
437.00	144.67
438.00	151.32
439.00	183.22
440.00	147.34
441.00	141.45
442.00	148.83
443.00	162.97
444.00	164.39
445.00	152.75
446.00	150.93
447.00	1003.03
448.00	673.03
449.00	171.06
450.00	154.32
451.00	148.57
452.00	153.72
453.00	143.94
454.00	167.38
455.00	150.48
456.00	143.66
457.00	142.94
458.00	149.82
459.00	140.67
460.00	139.93
461.00	140.26
462.00	141.69
463.00	146.42
464.00	143.07
465.00	146.75
466.00	144.26
467.00	145.36
468.00	141.16
469.00	148.44
470.00	163.03
471.00	432.22
472.00	449.25
473.00	178.81
474.00	146.19
475.00	158.58
476.00	166.76
477.00	148.58
478.00	146.45
479.00	156.98
480.00	152.92
481.00	153.27
482.00	162.40
483.00	162.71
484.00	172.92
485.00	158.69
486.00	161.33
487.00	163.78
488.00	153.95
489.00	159.85
490.00	151.79
491.00	149.07
492.00	357.75
493.00	383.37
494.00	183.97
495.00	159.70
496.00	166.32
497.00	160.00
498.00	151.65
499.00	158.81
500.00	166.15
501.00	618.07
502.00	1249.29
503.00	597.96
504.00	371.41
505.00	363.17
506.00	228.08
507.00	170.76
508.00	249.37
509.00	214.62
510.00	153.66
511.00	176.41
512.00	218.61
513.00	189.14
514.00	175.99
515.00	218.70
516.00	206.14
517.00	159.95
518.00	151.76
519.00	208.26
520.00	225.27
521.00	221.82
522.00	190.72
523.00	173.12
524.00	153.84
525.00	148.45
526.00	151.51
527.00	145.35
528.00	144.45
529.00	146.14
530.00	154.40
531.00	158.08
532.00	156.49
533.00	283.71
534.00	417.49
535.00	322.39
536.00	193.93
537.00	168.67
538.00	158.42
539.00	145.97
540.00	162.09
541.00	164.10
542.00	150.35
543.00	170.51
544.00	174.87
545.00	151.60
546.00	143.25
547.00	143.63
548.00	139.52
549.00	140.22
550.00	145.21
551.00	140.79
552.00	140.71
553.00	144.07
554.00	147.67
555.00	147.90
556.00	158.88
557.00	155.09
558.00	151.17
559.00	145.39
560.00	146.28
561.00	141.98
562.00	141.10
563.00	139.80
564.00	143.71
565.00	165.39
566.00	202.95
567.00	188.86
568.00	163.36
569.00	197.99
570.00	191.70
571.00	163.49
572.00	186.95
573.00	177.47
574.00	190.37
575.00	261.73
576.00	505.03
577.00	572.88
578.00	382.33
579.00	194.34
580.00	217.79
581.00	268.45
582.00	453.96
583.00	399.59
584.00	258.10
585.00	1233.50
586.00	1373.61
587.00	1943.66
588.00	2913.14
589.00	2037.44
590.00	685.57
591.00	452.69
592.00	353.02
593.00	247.71
594.00	682.53
595.00	944.99
596.00	669.98
597.00	473.68
598.00	513.86
599.00	441.67
600.00	287.53
601.00	204.94
602.00	208.29
603.00	394.17
604.00	384.57
605.00	276.23
606.00	210.59
607.00	659.46
608.00	808.03
609.00	1237.67
610.00	1605.44
611.00	1152.62
612.00	445.47
613.00	307.02
614.00	1659.73
615.00	1793.43
616.00	1523.02
617.00	786.53
618.00	595.66
619.00	350.80
620.00	267.50
621.00	334.80
622.00	499.30
623.00	406.39
624.00	243.80
625.00	217.87
626.00	555.68
627.00	1037.19
628.00	806.16
629.00	389.81
630.00	407.01
631.00	451.53
632.00	429.51
633.00	1052.70
634.00	1114.65
635.00	786.00
636.00	348.52
637.00	237.40
638.00	952.80
639.00	990.64
640.00	3760.19
641.00	3457.16
642.00	2128.70
643.00	507.56
644.00	256.78
645.00	233.74
646.00	217.49
647.00	196.98
648.00	192.19
649.00	197.11
650.00	742.65
651.00	1557.05
652.00	1177.35
653.00	653.85
654.00	425.90
655.00	328.03
656.00	202.16
657.00	180.59
658.00	173.13
659.00	257.78
660.00	730.72
661.00	627.49
662.00	366.13
663.00	196.53
664.00	179.17
665.00	187.40
666.00	191.58
667.00	625.58
668.00	2932.23
669.00	2311.39
670.00	1011.45
671.00	511.05
672.00	774.34
673.00	633.03
674.00	315.51
675.00	190.02
676.00	172.12
677.00	162.02
678.00	153.05
679.00	151.49
680.00	149.24
681.00	151.43
682.00	156.49
683.00	147.57
684.00	150.48
685.00	150.81
686.00	149.23
687.00	150.99
688.00	149.10
689.00	158.39
690.00	152.02
691.00	155.33
692.00	191.36
693.00	688.33
694.00	587.10
695.00	396.04
696.00	191.12
697.00	165.40
698.00	159.03
699.00	161.82
700.00	162.39
701.00	158.66
702.00	169.47
703.00	1029.14
704.00	988.65
705.00	831.59
706.00	859.99
707.00	1093.32
708.00	861.32
709.00	386.98
710.00	186.35
711.00	159.18
712.00	157.54
713.00	155.93
714.00	150.23
715.00	145.00
716.00	151.82
717.00	187.31
718.00	201.29
719.00	194.18
720.00	153.66
721.00	147.46
722.00	146.20
723.00	142.93
724.00	350.40
725.00	486.18
726.00	413.33
727.00	236.62
728.00	412.42
729.00	383.53
730.00	339.71
731.00	193.35
732.00	158.27
733.00	148.92
734.00	143.00
735.00	142.30
736.00	140.87
737.00	140.87
738.00	138.37
739.00	141.80
740.00	141.45
741.00	138.74
742.00	137.94
743.00	145.68
744.00	221.11
745.00	197.37
746.00	176.70
747.00	155.57
748.00	153.90
749.00	240.74
750.00	212.81
751.00	181.96
752.00	151.90
753.00	175.62
754.00	228.72
755.00	216.68
756.00	176.90
757.00	149.32
758.00	140.71
759.00	137.92
760.00	134.98
761.00	132.14
762.00	137.19
763.00	137.11
764.00	137.78
765.00	139.91
766.00	135.92
767.00	138.47
768.00	143.66
769.00	129.98
770.00	133.63
771.00	130.99
772.00	133.13
773.00	136.93
774.00	137.42
775.00	131.03
776.00	133.47
777.00	153.05
778.00	150.62
779.00	148.59
780.00	140.92
781.00	132.38
782.00	132.00
783.00	131.87
784.00	136.93
785.00	136.59
786.00	133.81
787.00	133.71
788.00	134.36
789.00	136.85
790.00	136.10
791.00	134.78
792.00	133.91
793.00	136.14
794.00	145.34
795.00	148.22
796.00	141.35
797.00	140.36
798.00	140.46
799.00	133.27
800.00	137.72
801.00	139.87
802.00	135.91
803.00	136.67
804.00	137.66
805.00	134.73
806.00	135.13
807.00	137.72
808.00	138.19
809.00	137.06
810.00	133.01
811.00	137.82
812.00	148.50
813.00	153.06
814.00	158.00
815.00	152.05
816.00	145.22
817.00	141.01
818.00	135.97
819.00	135.19
820.00	137.47
821.00	139.34
822.00	131.46
823.00	138.73
824.00	139.02
825.00	143.08
826.00	141.78
827.00	145.61
828.00	146.87
829.00	142.63
830.00	173.98
831.00	167.19
832.00	156.26
833.00	142.84
834.00	135.67
835.00	137.54
836.00	142.12
837.00	189.22
838.00	318.53
839.00	242.03
840.00	197.73
841.00	152.42
842.00	174.07
843.00	157.02
844.00	153.31
845.00	149.09
846.00	145.97
847.00	142.07
848.00	138.26
849.00	192.54
850.00	221.99
851.00	191.10
852.00	159.45
853.00	141.00
854.00	139.22
855.00	138.12
856.00	138.73
857.00	136.02
858.00	139.37
859.00	173.77
860.00	159.98
861.00	153.66
862.00	140.01
863.00	164.66
864.00	160.77
865.00	204.19
866.00	191.61
867.00	162.45
868.00	168.62
869.00	149.68
870.00	135.13
871.00	134.99
872.00	142.76
873.00	137.44
874.00	136.44
875.00	137.13
876.00	140.03
877.00	143.50
878.00	197.25
879.00	175.38
880.00	153.21
881.00	145.91
882.00	136.69
883.00	133.99
884.00	138.59
885.00	151.77
886.00	149.32
887.00	149.69
888.00	140.72
889.00	140.32
890.00	138.26
891.00	136.93
892.00	135.42
893.00	133.23
894.00	137.94
895.00	132.60
896.00	136.43
897.00	124.58
898.00	133.24
899.00	137.82
900.00	137.52
901.00	136.00
902.00	136.59
903.00	136.73
904.00	135.89
905.00	134.99
906.00	135.00
907.00	131.67
908.00	131.89
909.00	137.42
910.00	136.39
911.00	132.06
912.00	140.61
913.00	134.50
914.00	136.00
915.00	143.34
916.00	134.97
917.00	136.06
918.00	134.66
919.00	139.58
920.00	135.09
921.00	138.35
922.00	137.00
923.00	133.96
924.00	137.79
925.00	133.62
926.00	137.04
927.00	136.27
928.00	136.93
929.00	138.18
930.00	137.11
931.00	135.97
932.00	137.11
933.00	139.12
934.00	143.11
935.00	131.80
936.00	134.36
937.00	134.61
938.00	133.08
939.00	131.35
940.00	134.92
941.00	135.95
942.00	132.52
943.00	136.05
944.00	130.66
945.00	133.02
946.00	137.44
947.00	133.11
948.00	133.42
949.00	133.53
950.00	126.71
951.00	133.70
952.00	130.39
953.00	131.75
954.00	132.32
955.00	133.83
956.00	135.12
957.00	132.12
958.00	137.08
959.00	130.74
960.00	137.01
961.00	135.07
962.00	132.70
963.00	134.71
964.00	136.13
965.00	135.74
966.00	140.59
967.00	131.97
968.00	131.41
969.00	135.92
970.00	133.53
971.00	132.58
972.00	130.17
973.00	134.20
974.00	133.16
975.00	134.65
976.00	128.86
977.00	135.08
978.00	136.96
979.00	132.49
980.00	137.85
981.00	132.55
982.00	134.19
983.00	132.85
984.00	135.67
985.00	134.03
986.00	134.93
987.00	133.90
988.00	133.18
989.00	137.32
990.00	139.15
991.00	132.03
992.00	135.49
993.00	137.97
994.00	132.78
995.00	133.10
996.00	134.91
997.00	135.80
998.00	126.73
999.00	133.27
1000.00	136.50
>>>>>End Processed Spectral Data<<<<<
