SpectraSuite Data File
++++++++++++++++++++++++++++++++++++
Date: Mon Apr 03 15:09:01 EST 2017
User: z5074895
Dark Spectrum Present: No
Reference Spectrum Present: No
Number of Sampled Component Spectra: 1
Spectrometers: USB2G24502
Integration Time (usec): 100000 (USB2G24502)
Spectra Averaged: 1 (USB2G24502)
Boxcar Smoothing: 0 (USB2G24502)
Correct for Electrical Dark: No (USB2G24502)
Strobe/Lamp Enabled: No (USB2G24502)
Correct for Detector Non-linearity: No (USB2G24502)
Correct for Stray Light: No (USB2G24502)
Number of Pixels in Processed Spectrum: 651
>>>>>Begin Processed Spectral Data<<<<<
350.00	112.03
351.00	112.95
352.00	117.21
353.00	115.89
354.00	111.99
355.00	115.78
356.00	113.07
357.00	110.85
358.00	114.97
359.00	114.23
360.00	112.60
361.00	119.83
362.00	116.25
363.00	116.69
364.00	115.35
365.00	119.99
366.00	116.21
367.00	117.54
368.00	115.64
369.00	113.13
370.00	115.60
371.00	117.29
372.00	116.76
373.00	115.69
374.00	117.29
375.00	115.73
376.00	117.11
377.00	115.84
378.00	117.00
379.00	113.07
380.00	121.82
381.00	123.98
382.00	116.90
383.00	116.23
384.00	122.07
385.00	121.55
386.00	120.79
387.00	119.07
388.00	122.12
389.00	121.00
390.00	122.54
391.00	126.39
392.00	120.61
393.00	124.24
394.00	127.80
395.00	136.22
396.00	131.66
397.00	130.00
398.00	144.21
399.00	140.89
400.00	141.91
401.00	149.09
402.00	144.81
403.00	155.91
404.00	156.14
405.00	158.21
406.00	166.66
407.00	164.06
408.00	167.11
409.00	173.39
410.00	175.96
411.00	185.99
412.00	183.55
413.00	204.25
414.00	199.05
415.00	204.35
416.00	227.07
417.00	230.11
418.00	250.78
419.00	259.49
420.00	272.68
421.00	290.74
422.00	296.16
423.00	311.11
424.00	307.02
425.00	320.28
426.00	320.29
427.00	338.07
428.00	348.63
429.00	347.27
430.00	343.38
431.00	356.86
432.00	350.23
433.00	366.84
434.00	364.31
435.00	353.64
436.00	372.63
437.00	381.82
438.00	404.30
439.00	409.93
440.00	434.78
441.00	445.03
442.00	460.82
443.00	488.57
444.00	504.03
445.00	527.72
446.00	551.63
447.00	576.05
448.00	593.81
449.00	601.01
450.00	617.63
451.00	607.53
452.00	622.33
453.00	610.50
454.00	620.91
455.00	625.77
456.00	613.50
457.00	623.86
458.00	626.97
459.00	632.17
460.00	636.92
461.00	637.51
462.00	648.80
463.00	654.63
464.00	677.28
465.00	696.90
466.00	718.77
467.00	742.76
468.00	746.96
469.00	781.14
470.00	829.24
471.00	855.94
472.00	890.09
473.00	922.98
474.00	946.22
475.00	1017.05
476.00	1043.72
477.00	1065.27
478.00	1079.42
479.00	1108.03
480.00	1120.62
481.00	1147.47
482.00	1155.30
483.00	1153.92
484.00	1152.98
485.00	1143.38
486.00	1159.97
487.00	1173.90
488.00	1164.72
489.00	1168.15
490.00	1177.43
491.00	1179.41
492.00	1186.31
493.00	1194.80
494.00	1199.59
495.00	1216.75
496.00	1237.03
497.00	1274.95
498.00	1261.62
499.00	1298.84
500.00	1342.89
501.00	1368.06
502.00	1384.08
503.00	1399.96
504.00	1453.18
505.00	1490.31
506.00	1535.37
507.00	1557.74
508.00	1610.89
509.00	1664.61
510.00	1715.99
511.00	1725.74
512.00	1752.58
513.00	1783.80
514.00	1799.42
515.00	1817.15
516.00	1823.45
517.00	1846.04
518.00	1824.15
519.00	1817.27
520.00	1789.59
521.00	1795.04
522.00	1774.20
523.00	1754.49
524.00	1763.68
525.00	1714.89
526.00	1706.50
527.00	1710.45
528.00	1725.07
529.00	1701.18
530.00	1674.69
531.00	1663.69
532.00	1684.28
533.00	1680.55
534.00	1662.04
535.00	1703.36
536.00	1686.99
537.00	1685.86
538.00	1710.48
539.00	1747.09
540.00	1751.86
541.00	1779.94
542.00	1808.46
543.00	1852.43
544.00	1886.64
545.00	1907.39
546.00	1913.41
547.00	1967.40
548.00	2018.23
549.00	2060.06
550.00	2086.78
551.00	2106.07
552.00	2174.37
553.00	2223.58
554.00	2275.08
555.00	2300.69
556.00	2341.99
557.00	2359.44
558.00	2383.83
559.00	2414.55
560.00	2394.05
561.00	2433.16
562.00	2438.25
563.00	2421.78
564.00	2418.32
565.00	2383.14
566.00	2380.57
567.00	2372.12
568.00	2349.92
569.00	2315.75
570.00	2306.60
571.00	2297.98
572.00	2283.26
573.00	2253.29
574.00	2216.64
575.00	2215.67
576.00	2186.05
577.00	2163.01
578.00	2160.40
579.00	2174.58
580.00	2126.19
581.00	2129.40
582.00	2145.56
583.00	2112.90
584.00	2125.30
585.00	2143.91
586.00	2167.50
587.00	2161.39
588.00	2155.80
589.00	2170.69
590.00	2190.36
591.00	2209.67
592.00	2220.00
593.00	2232.97
594.00	2267.79
595.00	2317.22
596.00	2359.74
597.00	2384.62
598.00	2402.89
599.00	2420.18
600.00	2461.52
601.00	2490.22
602.00	2560.20
603.00	2585.10
604.00	2610.35
605.00	2667.59
606.00	2645.29
607.00	2712.59
608.00	2764.62
609.00	2756.16
610.00	2799.14
611.00	2832.13
612.00	2829.29
613.00	2845.47
614.00	2849.36
615.00	2831.22
616.00	2818.59
617.00	2808.01
618.00	2823.35
619.00	2790.34
620.00	2788.72
621.00	2748.74
622.00	2747.50
623.00	2697.25
624.00	2679.70
625.00	2691.15
626.00	2619.51
627.00	2599.04
628.00	2615.91
629.00	2579.66
630.00	2562.64
631.00	2544.91
632.00	2504.03
633.00	2500.94
634.00	2498.51
635.00	2476.16
636.00	2449.32
637.00	2449.87
638.00	2412.14
639.00	2437.79
640.00	2398.51
641.00	2404.23
642.00	2389.85
643.00	2386.07
644.00	2404.89
645.00	2394.77
646.00	2415.35
647.00	2420.38
648.00	2423.44
649.00	2418.14
650.00	2428.19
651.00	2426.96
652.00	2452.80
653.00	2441.63
654.00	2473.00
655.00	2487.94
656.00	2470.69
657.00	2525.87
658.00	2521.76
659.00	2510.76
660.00	2551.28
661.00	2558.86
662.00	2573.81
663.00	2608.44
664.00	2573.95
665.00	2623.62
666.00	2626.99
667.00	2611.23
668.00	2619.03
669.00	2647.54
670.00	2617.26
671.00	2621.82
672.00	2638.63
673.00	2627.03
674.00	2626.37
675.00	2613.35
676.00	2597.18
677.00	2560.87
678.00	2555.52
679.00	2560.68
680.00	2521.44
681.00	2506.38
682.00	2450.11
683.00	2466.81
684.00	2455.61
685.00	2402.23
686.00	2384.17
687.00	2343.28
688.00	2347.25
689.00	2277.38
690.00	2272.17
691.00	2267.41
692.00	2261.67
693.00	2209.48
694.00	2185.70
695.00	2166.32
696.00	2138.93
697.00	2159.33
698.00	2112.43
699.00	2113.62
700.00	2085.47
701.00	2083.32
702.00	2044.58
703.00	2044.83
704.00	2000.54
705.00	2013.09
706.00	2014.29
707.00	1985.63
708.00	1985.15
709.00	1981.26
710.00	1959.40
711.00	1963.67
712.00	1929.53
713.00	1952.93
714.00	1934.55
715.00	1923.32
716.00	1901.41
717.00	1917.09
718.00	1925.35
719.00	1926.48
720.00	1917.86
721.00	1887.46
722.00	1894.95
723.00	1852.40
724.00	1861.94
725.00	1864.67
726.00	1842.57
727.00	1841.66
728.00	1873.62
729.00	1857.21
730.00	1876.01
731.00	1861.69
732.00	1864.51
733.00	1882.21
734.00	1897.12
735.00	1874.85
736.00	1874.71
737.00	1881.66
738.00	1888.45
739.00	1842.72
740.00	1867.78
741.00	1862.02
742.00	1858.66
743.00	1856.33
744.00	1828.66
745.00	1809.35
746.00	1817.20
747.00	1791.57
748.00	1770.39
749.00	1780.25
750.00	1739.25
751.00	1737.96
752.00	1720.41
753.00	1667.22
754.00	1666.69
755.00	1621.46
756.00	1626.62
757.00	1596.59
758.00	1576.15
759.00	1544.18
760.00	1521.41
761.00	1495.34
762.00	1445.01
763.00	1432.22
764.00	1412.12
765.00	1415.94
766.00	1387.16
767.00	1368.71
768.00	1370.37
769.00	1316.14
770.00	1293.77
771.00	1277.58
772.00	1241.76
773.00	1240.75
774.00	1224.12
775.00	1188.42
776.00	1191.85
777.00	1171.88
778.00	1136.69
779.00	1128.10
780.00	1109.55
781.00	1099.40
782.00	1101.00
783.00	1048.08
784.00	1031.49
785.00	1032.41
786.00	1027.62
787.00	1008.40
788.00	1005.14
789.00	994.35
790.00	986.91
791.00	1001.67
792.00	979.17
793.00	981.78
794.00	1002.51
795.00	996.85
796.00	988.85
797.00	996.59
798.00	995.98
799.00	981.25
800.00	986.74
801.00	989.32
802.00	985.04
803.00	986.01
804.00	994.09
805.00	1000.08
806.00	995.28
807.00	1000.63
808.00	995.23
809.00	984.32
810.00	980.53
811.00	1000.66
812.00	984.57
813.00	972.03
814.00	960.20
815.00	962.27
816.00	961.94
817.00	971.75
818.00	957.99
819.00	978.16
820.00	958.76
821.00	939.86
822.00	950.41
823.00	966.80
824.00	922.27
825.00	939.30
826.00	930.46
827.00	936.46
828.00	925.90
829.00	936.43
830.00	931.92
831.00	912.98
832.00	901.44
833.00	916.11
834.00	912.26
835.00	893.33
836.00	899.30
837.00	898.27
838.00	892.39
839.00	883.17
840.00	869.22
841.00	866.26
842.00	853.99
843.00	829.25
844.00	864.03
845.00	840.88
846.00	837.15
847.00	809.04
848.00	803.30
849.00	780.14
850.00	794.90
851.00	782.37
852.00	769.34
853.00	765.97
854.00	734.44
855.00	732.26
856.00	726.61
857.00	717.25
858.00	693.35
859.00	672.30
860.00	687.37
861.00	679.76
862.00	650.85
863.00	652.89
864.00	633.45
865.00	620.62
866.00	609.08
867.00	598.92
868.00	593.55
869.00	587.62
870.00	576.54
871.00	555.62
872.00	550.03
873.00	547.07
874.00	530.51
875.00	516.30
876.00	503.55
877.00	502.27
878.00	493.73
879.00	474.20
880.00	467.58
881.00	458.31
882.00	454.13
883.00	444.48
884.00	437.88
885.00	439.67
886.00	434.12
887.00	425.85
888.00	430.42
889.00	427.73
890.00	423.72
891.00	420.05
892.00	402.51
893.00	406.62
894.00	410.90
895.00	408.44
896.00	412.51
897.00	411.69
898.00	402.32
899.00	400.08
900.00	404.39
901.00	400.90
902.00	398.89
903.00	397.77
904.00	402.85
905.00	392.64
906.00	399.96
907.00	381.11
908.00	396.17
909.00	404.32
910.00	391.14
911.00	383.51
912.00	376.38
913.00	370.83
914.00	378.01
915.00	369.85
916.00	378.33
917.00	357.92
918.00	358.48
919.00	364.49
920.00	350.33
921.00	351.14
922.00	342.36
923.00	342.08
924.00	341.38
925.00	326.53
926.00	328.10
927.00	333.91
928.00	321.40
929.00	317.89
930.00	312.43
931.00	298.57
932.00	302.68
933.00	285.15
934.00	292.87
935.00	274.93
936.00	262.18
937.00	256.80
938.00	245.24
939.00	236.93
940.00	231.13
941.00	213.96
942.00	199.85
943.00	206.69
944.00	202.38
945.00	173.38
946.00	198.90
947.00	204.83
948.00	200.30
949.00	203.21
950.00	200.55
951.00	208.45
952.00	202.08
953.00	209.01
954.00	210.54
955.00	207.95
956.00	203.46
957.00	210.44
958.00	206.33
959.00	213.10
960.00	212.06
961.00	203.11
962.00	203.95
963.00	209.55
964.00	202.13
965.00	209.09
966.00	208.50
967.00	204.01
968.00	205.22
969.00	200.49
970.00	200.32
971.00	195.86
972.00	200.14
973.00	197.25
974.00	193.94
975.00	194.61
976.00	190.79
977.00	190.43
978.00	187.97
979.00	188.27
980.00	186.06
981.00	180.38
982.00	200.75
983.00	172.77
984.00	182.79
985.00	180.78
986.00	176.34
987.00	171.02
988.00	172.01
989.00	171.42
990.00	163.03
991.00	162.56
992.00	160.71
993.00	160.60
994.00	159.49
995.00	154.89
996.00	158.02
997.00	162.09
998.00	154.18
999.00	155.40
1000.00	152.03
>>>>>End Processed Spectral Data<<<<<
